wavelength_nm,irradiance,radiance,reflectance
755.00000000,4.805854615e+14,1.780095909e+13,2.327301460e-1
755.03000000,4.819329352e+14,1.784999137e+13,2.327186945e-1
755.06000000,4.831738803e+14,1.789506693e+13,2.327071603e-1
755.09000000,4.841116031e+14,1.792889842e+13,2.326954991e-1
755.12000000,4.847750774e+14,1.795255999e+13,2.326837051e-1
755.15000000,4.853461634e+14,1.797278924e+13,2.326717996e-1
755.18000000,4.859418289e+14,1.799391980e+13,2.326598078e-1
755.21000000,4.865001923e+14,1.801366084e+13,2.326477377e-1
755.24000000,4.868681654e+14,1.802634335e+13,2.326355751e-1
755.27000000,4.869685778e+14,1.802910932e+13,2.326232943e-1
755.30000000,4.868655903e+14,1.802433452e+13,2.326108809e-1
755.33000000,4.866794204e+14,1.801647117e+13,2.325983434e-1
755.36000000,4.864803728e+14,1.800812418e+13,2.325857066e-1
755.39000000,4.862750115e+14,1.799953922e+13,2.325730043e-1
755.42000000,4.860407500e+14,1.798988326e+13,2.325602744e-1
755.45000000,4.857201523e+14,1.797703331e+13,2.325475503e-1
755.48000000,4.851570565e+14,1.795521266e+13,2.325348603e-1
755.51000000,4.840714971e+14,1.791406337e+13,2.325222213e-1
755.54000000,4.822423421e+14,1.784540280e+13,2.325095971e-1
755.57000000,4.798138573e+14,1.775456456e+13,2.324968683e-1
755.60000000,4.773313046e+14,1.766171626e+13,2.324838850e-1
755.63000000,4.753871028e+14,1.758877111e+13,2.324705646e-1
755.66000000,4.742456176e+14,1.754550788e+13,2.324569236e-1
755.69000000,4.737745453e+14,1.752703211e+13,2.324430295e-1
755.72000000,4.736414891e+14,1.752104794e+13,2.324289437e-1
755.75000000,4.735565337e+14,1.751683134e+13,2.324146949e-1
755.78000000,4.734077921e+14,1.751024322e+13,2.324002789e-1
755.81000000,4.732677425e+14,1.750396309e+13,2.323856748e-1
755.84000000,4.733298030e+14,1.750514420e+13,2.323708842e-1
755.87000000,4.738180914e+14,1.752207811e+13,2.323559732e-1
755.90000000,4.748676998e+14,1.755976704e+13,2.323410716e-1
755.93000000,4.764087376e+14,1.761563185e+13,2.323262998e-1
755.96000000,4.781397896e+14,1.767852527e+13,2.323116642e-1
755.99000000,4.796287829e+14,1.773246022e+13,2.322970128e-1
756.02000000,4.805229271e+14,1.776437764e+13,2.322821041e-1
756.05000000,4.807734604e+14,1.777246494e+13,2.322667530e-1
756.08000000,4.806526582e+14,1.776678863e+13,2.322509267e-1
756.11000000,4.805091471e+14,1.776024361e+13,2.322347085e-1
756.14000000,4.805432087e+14,1.776023997e+13,2.322181998e-1
756.17000000,4.807809851e+14,1.776774718e+13,2.322014628e-1
756.20000000,4.811397100e+14,1.777970603e+13,2.321845098e-1
756.23000000,4.814915042e+14,1.779138797e+13,2.321673104e-1
756.26000000,4.817420375e+14,1.779930384e+13,2.321498139e-1
756.29000000,4.819151157e+14,1.780433031e+13,2.321319730e-1
756.32000000,4.821622705e+14,1.781206386e+13,2.321137608e-1
756.35000000,4.826447434e+14,1.782846045e+13,2.320951845e-1
756.38000000,4.833725563e+14,1.785388987e+13,2.320762671e-1
756.41000000,4.841672180e+14,1.788175792e+13,2.320570135e-1
756.44000000,4.848049100e+14,1.790379665e+13,2.320374025e-1
756.47000000,4.851857480e+14,1.791631719e+13,2.320174106e-1
756.50000000,4.853476209e+14,1.792071946e+13,2.319970190e-1
756.53000000,4.853683343e+14,1.791987621e+13,2.319762023e-1
756.56000000,4.853149891e+14,1.791626391e+13,2.319549338e-1
756.59000000,4.852545261e+14,1.791235334e+13,2.319332006e-1
756.62000000,4.852462451e+14,1.791033381e+13,2.319110088e-1
756.65000000,4.853052829e+14,1.791076488e+13,2.318883777e-1
756.68000000,4.853847551e+14,1.791191629e+13,2.318653152e-1
756.71000000,4.854058902e+14,1.791087826e+13,2.318417831e-1
756.74000000,4.853124007e+14,1.790556765e+13,2.318176898e-1
756.77000000,4.850918091e+14,1.789551856e+13,2.317929455e-1
756.80000000,4.847135038e+14,1.787960326e+13,2.317675485e-1
756.83000000,4.840252154e+14,1.785221651e+13,2.317416137e-1
756.86000000,4.827969689e+14,1.780489047e+13,2.317152621e-1
756.89000000,4.809764805e+14,1.773570135e+13,2.316884560e-1
756.92000000,4.788543258e+14,1.765535439e+13,2.316609819e-1
756.95000000,4.768987847e+14,1.758109913e+13,2.316325964e-1
756.98000000,4.754605042e+14,1.752584878e+13,2.316031607e-1
757.01000000,4.746456636e+14,1.749351004e+13,2.315726734e-1
757.04000000,4.743843912e+14,1.748150691e+13,2.315412341e-1
757.07000000,4.745407356e+14,1.748483159e+13,2.315089700e-1
757.10000000,4.749670403e+14,1.749804443e+13,2.314759685e-1
757.13000000,4.755263272e+14,1.751609668e+13,2.314422462e-1
757.16000000,4.761383364e+14,1.753602687e+13,2.314077610e-1
757.19000000,4.768485340e+14,1.755950490e+13,2.313724701e-1
757.22000000,4.778430583e+14,1.759338446e+13,2.313364039e-1
757.25000000,4.793203329e+14,1.764497428e+13,2.312996874e-1
757.28000000,4.812460101e+14,1.771301170e+13,2.312624573e-1
757.31000000,4.831849669e+14,1.778147684e+13,2.312247311e-1
757.34000000,4.844322170e+14,1.782441724e+13,2.311863509e-1
757.37000000,4.844492497e+14,1.782201405e+13,2.311470539e-1
757.40000000,4.832650858e+14,1.777533612e+13,2.311065583e-1
757.43000000,4.814374980e+14,1.770489851e+13,2.310645902e-1
757.46000000,4.796340668e+14,1.763524423e+13,2.310209285e-1
757.49000000,4.782674508e+14,1.758153736e+13,2.309754867e-1
757.52000000,4.774221461e+14,1.754687958e+13,2.309283238e-1
757.55000000,4.769841638e+14,1.752707991e+13,2.308795539e-1
757.58000000,4.767981783e+14,1.751642958e+13,2.308292648e-1
757.61000000,4.767590896e+14,1.751106606e+13,2.307775046e-1
757.64000000,4.768445160e+14,1.751016597e+13,2.307243008e-1
757.67000000,4.771207947e+14,1.751616396e+13,2.306696863e-1
757.70000000,4.777274556e+14,1.753418192e+13,2.306137379e-1
757.73000000,4.788216788e+14,1.756998907e+13,2.305565977e-1
757.76000000,4.804733393e+14,1.762614659e+13,2.304984194e-1
757.79000000,4.825491246e+14,1.769775180e+13,2.304392411e-1
757.82000000,4.846817010e+14,1.777130820e+13,2.303788700e-1
757.85000000,4.864134422e+14,1.783000533e+13,2.303168823e-1
757.88000000,4.874660459e+14,1.786361838e+13,2.302528053e-1
757.91000000,4.879001938e+14,1.787436901e+13,2.301863663e-1
757.94000000,4.879876961e+14,1.787223035e+13,2.301175543e-1
757.97000000,4.879592520e+14,1.786566656e+13,2.300464499e-1
758.00000000,4.879049767e+14,1.785798133e+13,2.299730711e-1
758.03000000,4.878372607e+14,1.784962492e+13,2.298973655e-1
758.06000000,4.877609265e+14,1.784076924e+13,2.298192681e-1
758.09000000,4.876826198e+14,1.783165374e+13,2.297387281e-1
758.12000000,4.875902939e+14,1.782183437e+13,2.296556951e-1
758.15000000,4.874482593e+14,1.781000232e+13,2.295700985e-1
758.18000000,4.872277689e+14,1.779510162e+13,2.294818321e-1
758.21000000,4.869516256e+14,1.777795673e+13,2.293907457e-1
758.24000000,4.866906952e+14,1.776114351e+13,2.292966704e-1
758.27000000,4.864722779e+14,1.774564996e+13,2.291995087e-1
758.30000000,4.861492246e+14,1.772611640e+13,2.290993557e-1
758.33000000,4.853842947e+14,1.769027391e+13,2.289964268e-1
758.36000000,4.838920277e+14,1.762773601e+13,2.288905904e-1
758.39000000,4.817658366e+14,1.754187415e+13,2.287809503e-1
758.42000000,4.794875154e+14,1.745015573e+13,2.286661458e-1
758.45000000,4.775783160e+14,1.737147617e+13,2.285451416e-1
758.48000000,4.762589539e+14,1.731382802e+13,2.284177314e-1
758.51000000,4.753354052e+14,1.727017936e+13,2.282845671e-1
758.54000000,4.742688461e+14,1.722103219e+13,2.281468355e-1
758.57000000,4.724579747e+14,1.714463659e+13,2.280053137e-1
758.60000000,4.697049091e+14,1.703380295e+13,2.278591055e-1
758.63000000,4.664640614e+14,1.690487186e+13,2.277055218e-1
758.66000000,4.635737907e+14,1.678803594e+13,2.275416403e-1
758.69000000,4.617689574e+14,1.670977100e+13,2.273660582e-1
758.72000000,4.613910974e+14,1.668238516e+13,2.271793234e-1
758.75000000,4.623190512e+14,1.670149162e+13,2.269830034e-1
758.78000000,4.639960706e+14,1.674694515e+13,2.267781267e-1
758.81000000,4.656187612e+14,1.678963002e+13,2.265638016e-1
758.84000000,4.665638354e+14,1.680686993e+13,2.263370416e-1
758.87000000,4.668083926e+14,1.679764424e+13,2.260942887e-1
758.90000000,4.669396063e+14,1.678297355e+13,2.258333442e-1
758.93000000,4.677316368e+14,1.679063961e+13,2.255539113e-1
758.96000000,4.696810240e+14,1.683839291e+13,2.252565838e-1
758.99000000,4.727488214e+14,1.692463666e+13,2.249410756e-1
759.02000000,4.763256295e+14,1.702715673e+13,2.246042924e-1
759.05000000,4.795096761e+14,1.711313272e+13,2.242394459e-1
759.08000000,4.816588384e+14,1.715901785e+13,2.238374556e-1
759.11000000,4.827649984e+14,1.716399717e+13,2.233893824e-1
759.14000000,4.832831878e+14,1.714375726e+13,2.228867183e-1
759.17000000,4.836967477e+14,1.711468464e+13,2.223184993e-1
759.20000000,4.842801956e+14,1.708505194e+13,2.216661930e-1
759.23000000,4.850840810e+14,1.705354774e+13,2.208907791e-1
759.26000000,4.859825069e+14,1.700719690e+13,2.198831607e-1
759.29000000,4.867665178e+14,1.691433734e+13,2.183303739e-1
759.32000000,4.872782368e+14,1.671767341e+13,2.155652192e-1
759.35000000,4.874903799e+14,1.634675753e+13,2.106907356e-1
759.38000000,4.874773335e+14,1.575592128e+13,2.030809769e-1
759.41000000,4.873392947e+14,1.495339913e+13,1.927917136e-1
759.44000000,4.871478067e+14,1.399053630e+13,1.804485844e-1
759.47000000,4.869283049e+14,1.292628486e+13,1.667971286e-1
759.50000000,4.866807649e+14,1.180246555e+13,1.523731437e-1
759.53000000,4.864208084e+14,1.064223552e+13,1.374676755e-1
759.56000000,4.861943760e+14,9.457847075e+12,1.222256133e-1
759.59000000,4.860450879e+14,8.257560593e+12,1.067468527e-1
759.62000000,4.859753910e+14,7.055337651e+12,9.121859807e-2
759.65000000,4.859472228e+14,5.880933375e+12,7.603910968e-2
759.68000000,4.859145847e+14,4.779907594e+12,6.180725195e-2
759.71000000,4.858537238e+14,3.806271345e+12,4.922367992e-2
759.74000000,4.857764216e+14,3.015361097e+12,3.900163058e-2
759.77000000,4.857239533e+14,2.446189473e+12,3.164320320e-2
759.80000000,4.857401942e+14,2.090579258e+12,2.704222758e-2
759.83000000,4.858431915e+14,1.884990160e+12,2.437770599e-2
759.86000000,4.860198890e+14,1.751741754e+12,2.264622971e-2
759.89000000,4.862355643e+14,1.649322402e+12,2.131271146e-2
759.92000000,4.864328014e+14,1.575236524e+12,2.034711260e-2
759.95000000,4.865194902e+14,1.532014055e+12,1.978528794e-2
759.98000000,4.863710166e+14,1.506346586e+12,1.945974249e-2
760.01000000,4.858697784e+14,1.477533649e+12,1.910721376e-2
760.04000000,4.849750420e+14,1.433573186e+12,1.857292685e-2
760.07000000,4.837749314e+14,1.374939589e+12,1.785747806e-2
760.10000000,4.824604708e+14,1.308251173e+12,1.703763323e-2
760.13000000,4.812111066e+14,1.238840834e+12,1.617557538e-2
760.16000000,4.800682672e+14,1.165615417e+12,1.525570041e-2
760.19000000,4.789137299e+14,1.082882452e+12,1.420704959e-2
760.22000000,4.775959517e+14,9.917939884e+11,1.304790251e-2
760.25000000,4.761010405e+14,9.066795540e+11,1.196560219e-2
760.28000000,4.746045057e+14,8.412275949e+11,1.113682824e-2
760.31000000,4.733688282e+14,7.919763168e+11,1.051217077e-2
760.34000000,4.726087921e+14,7.450135688e+11,9.904721172e-3
760.37000000,4.724318304e+14,6.953524754e+11,9.247955315e-3
760.40000000,4.728451807e+14,6.504134243e+11,8.642719093e-3
760.43000000,4.737653215e+14,6.166357393e+11,8.177965843e-3
760.46000000,4.750029418e+14,5.909550330e+11,7.816962073e-3
760.49000000,4.762818446e+14,5.661837291e+11,7.469185165e-3
760.52000000,4.773621560e+14,5.402413934e+11,7.110820878e-3
760.55000000,4.781894466e+14,5.186009314e+11,6.814173286e-3
760.58000000,4.788925892e+14,5.079340548e+11,6.664216282e-3
760.61000000,4.796245544e+14,5.072926578e+11,6.645643441e-3
760.64000000,4.804267072e+14,5.075761761e+11,6.638255376e-3
760.67000000,4.812209604e+14,5.008611187e+11,6.539622088e-3
760.70000000,4.818854142e+14,4.881086614e+11,6.364328696e-3
760.73000000,4.823419968e+14,4.768999998e+11,6.212295615e-3
760.76000000,4.825994658e+14,4.737663705e+11,6.168183160e-3
760.79000000,4.827279295e+14,4.804307442e+11,6.253285150e-3
760.82000000,4.828069612e+14,4.958794580e+11,6.453309035e-3
760.85000000,4.828991961e+14,5.176633383e+11,6.735514798e-3
760.88000000,4.830509099e+14,5.402411997e+11,7.027076233e-3
760.91000000,4.832877794e+14,5.571352966e+11,7.243270902e-3
760.94000000,4.835789908e+14,5.670358640e+11,7.367547964e-3
760.97000000,4.838050468e+14,5.738869161e+11,7.453080250e-3
761.00000000,4.838178384e+14,5.808870544e+11,7.543791724e-3
761.03000000,4.835702047e+14,5.904160813e+11,7.671468612e-3
761.06000000,4.831508951e+14,6.101615899e+11,7.934908898e-3
761.09000000,4.826871524e+14,6.514690784e+11,8.480235948e-3
761.12000000,4.822669940e+14,7.172456450e+11,9.344589935e-3
761.15000000,4.819433184e+14,7.948673649e+11,1.036283471e-2
761.18000000,4.817409773e+14,8.643611490e+11,1.127357133e-2
761.21000000,4.816467107e+14,9.124696112e+11,1.190336304e-2
761.24000000,4.816279596e+14,9.383813543e+11,1.224186391e-2
761.27000000,4.816742056e+14,9.507536711e+11,1.240207889e-2
761.30000000,4.818161973e+14,9.655547048e+11,1.259143874e-2
761.33000000,4.821109254e+14,1.006931632e+12,1.312299245e-2
761.36000000,4.826114868e+14,1.102650665e+12,1.435556063e-2
761.39000000,4.833338100e+14,1.268770038e+12,1.649360565e-2
761.42000000,4.842195615e+14,1.491449246e+12,1.935289842e-2
761.45000000,4.851168708e+14,1.723908472e+12,2.232789052e-2
761.48000000,4.858252732e+14,1.910904718e+12,2.471375844e-2
761.51000000,4.861985512e+14,2.026306033e+12,2.618612553e-2
761.54000000,4.862147675e+14,2.088322463e+12,2.698666905e-2
761.57000000,4.859445717e+14,2.139808488e+12,2.766738026e-2
761.60000000,4.854282377e+14,2.223580332e+12,2.878111776e-2
761.63000000,4.845230086e+14,2.377980025e+12,3.083710967e-2
761.66000000,4.829048726e+14,2.639563267e+12,3.434395898e-2
761.69000000,4.803813802e+14,3.035304273e+12,3.970049631e-2
761.72000000,4.772269154e+14,3.568340063e+12,4.698088295e-2
761.75000000,4.740855222e+14,4.211753688e+12,5.581952549e-2
761.78000000,4.715388852e+14,4.922721596e+12,6.559453096e-2
761.81000000,4.697955642e+14,5.671425647e+12,7.585132984e-2
761.84000000,4.686569978e+14,6.456695032e+12,8.656354551e-2
761.87000000,4.676595648e+14,7.289746603e+12,9.794053666e-2
761.90000000,4.663680004e+14,8.163847623e+12,1.099881797e-1
761.93000000,4.647031048e+14,9.041344155e+12,1.222467424e-1
761.96000000,4.629780434e+14,9.864628786e+12,1.338752270e-1
761.99000000,4.615924814e+14,1.056931287e+13,1.438692223e-1
762.02000000,4.607959560e+14,1.108269001e+13,1.511180689e-1
762.05000000,4.607605287e+14,1.132563765e+13,1.544426565e-1
762.08000000,4.616407102e+14,1.124651019e+13,1.530712219e-1
762.11000000,4.633496256e+14,1.086813610e+13,1.473757812e-1
762.14000000,4.653901192e+14,1.029115990e+13,1.389399173e-1
762.17000000,4.671505462e+14,9.640490204e+12,1.296648091e-1
762.20000000,4.683992380e+14,9.003381106e+12,1.207728521e-1
762.23000000,4.693845789e+14,8.400970302e+12,1.124554481e-1
762.26000000,4.705126197e+14,7.799576647e+12,1.041548799e-1
762.29000000,4.720435032e+14,7.151663668e+12,9.519298068e-2
762.32000000,4.739847582e+14,6.440779140e+12,8.537955738e-2
762.35000000,4.761138419e+14,5.698572812e+12,7.520299939e-2
762.38000000,4.781457308e+14,4.987510459e+12,6.553954248e-2
762.41000000,4.799587575e+14,4.372657063e+12,5.724286552e-2
762.44000000,4.816045107e+14,3.902955612e+12,5.091935979e-2
762.47000000,4.830795125e+14,3.600138041e+12,4.682528209e-2
762.50000000,4.842183361e+14,3.449336054e+12,4.475835795e-2
762.53000000,4.848797155e+14,3.399935243e+12,4.405715991e-2
762.56000000,4.851338415e+14,3.385904935e+12,4.385236881e-2
762.59000000,4.851900590e+14,3.354815240e+12,4.344467788e-2
762.62000000,4.852108021e+14,3.285030374e+12,4.253914894e-2
762.65000000,4.852503604e+14,3.184605482e+12,4.123534572e-2
762.68000000,4.853074666e+14,3.079126633e+12,3.986487856e-2
762.71000000,4.853761620e+14,2.994237675e+12,3.876035050e-2
762.74000000,4.854595910e+14,2.938731496e+12,3.803528635e-2
762.77000000,4.855650611e+14,2.901599933e+12,3.754654428e-2
762.80000000,4.857005402e+14,2.867895148e+12,3.710005480e-2
762.83000000,4.858731510e+14,2.834995171e+12,3.666142072e-2
762.86000000,4.860769054e+14,2.810091677e+12,3.632414242e-2
762.89000000,4.862764658e+14,2.797022522e+12,3.614036880e-2
762.92000000,4.864140112e+14,2.792851354e+12,3.607626875e-2
762.95000000,4.864466054e+14,2.794710405e+12,3.609786390e-2
762.98000000,4.863799636e+14,2.803602244e+12,3.621767701e-2
763.01000000,4.862602256e+14,2.821987239e+12,3.646415607e-2
763.04000000,4.861364235e+14,2.850316166e+12,3.683958615e-2
763.07000000,4.860363625e+14,2.884951977e+12,3.729492127e-2
763.10000000,4.859672818e+14,2.918444394e+12,3.773325412e-2
763.13000000,4.859248870e+14,2.942608983e+12,3.804900309e-2
763.16000000,4.859010227e+14,2.951982379e+12,3.817207918e-2
763.19000000,4.858899254e+14,2.945120175e+12,3.808421382e-2
763.22000000,4.858910818e+14,2.923191483e+12,3.780055750e-2
763.25000000,4.859052213e+14,2.887730106e+12,3.734091049e-2
763.28000000,4.859260510e+14,2.842247949e+12,3.675121043e-2
763.31000000,4.859360787e+14,2.798184123e+12,3.618070388e-2
763.34000000,4.859127862e+14,2.776360560e+12,3.590024460e-2
763.37000000,4.858423864e+14,2.798849773e+12,3.619628971e-2
763.40000000,4.857289171e+14,2.877906302e+12,3.722738745e-2
763.43000000,4.855898853e+14,3.007786809e+12,3.891860695e-2
763.46000000,4.854463068e+14,3.162478588e+12,4.093231058e-2
763.49000000,4.853162627e+14,3.305929662e+12,4.280047935e-2
763.52000000,4.852082052e+14,3.411393728e+12,4.417571409e-2
763.55000000,4.851175373e+14,3.472118301e+12,4.497046801e-2
763.58000000,4.850370863e+14,3.494329807e+12,4.526565560e-2
763.61000000,4.849724342e+14,3.483154871e+12,4.512691024e-2
763.64000000,4.849435904e+14,3.436656585e+12,4.452713798e-2
763.67000000,4.849706303e+14,3.353089045e+12,4.344197051e-2
763.70000000,4.850551972e+14,3.244498445e+12,4.202776318e-2
763.73000000,4.851731985e+14,3.143338097e+12,4.070747479e-2
763.76000000,4.852856945e+14,3.093710524e+12,4.005549047e-2
763.79000000,4.853578534e+14,3.133460637e+12,4.056411923e-2
763.82000000,4.853717745e+14,3.279325239e+12,4.245118740e-2
763.85000000,4.853309123e+14,3.518415951e+12,4.555007490e-2
763.88000000,4.852576795e+14,3.807305733e+12,4.929753500e-2
763.91000000,4.851769356e+14,4.085832867e+12,5.291274822e-2
763.94000000,4.850815541e+14,4.303540637e+12,5.574308706e-2
763.97000000,4.849083326e+14,4.440397815e+12,5.753632271e-2
764.00000000,4.845760233e+14,4.503868980e+12,5.839876932e-2
764.03000000,4.840761343e+14,4.505767873e+12,5.848372289e-2
764.06000000,4.835152328e+14,4.444878320e+12,5.776031913e-2
764.09000000,4.830516982e+14,4.315000964e+12,5.612639549e-2
764.12000000,4.827964669e+14,4.128076199e+12,5.372340002e-2
764.15000000,4.827651328e+14,3.926682936e+12,5.110575486e-2
764.18000000,4.828933603e+14,3.773171614e+12,4.909476583e-2
764.21000000,4.830835470e+14,3.724898731e+12,4.844758039e-2
764.24000000,4.832544711e+14,3.815292390e+12,4.960572643e-2
764.27000000,4.833731214e+14,4.049835353e+12,5.264228576e-2
764.30000000,4.834583082e+14,4.407356247e+12,5.727947073e-2
764.33000000,4.835656620e+14,4.837076355e+12,6.285030032e-2
764.36000000,4.837662774e+14,5.262167939e+12,6.834535151e-2
764.39000000,4.841144844e+14,5.606561345e+12,7.276597789e-2
764.42000000,4.846027163e+14,5.831171206e+12,7.560487800e-2
764.45000000,4.851362466e+14,5.939813818e+12,7.692880334e-2
764.48000000,4.855760175e+14,5.946795039e+12,7.694946593e-2
764.51000000,4.858344910e+14,5.849344777e+12,7.564822556e-2
764.54000000,4.859270385e+14,5.640290384e+12,7.293068066e-2
764.57000000,4.859252822e+14,5.341753495e+12,6.907075697e-2
764.60000000,4.858856530e+14,5.017626318e+12,6.488496988e-2
764.63000000,4.858299641e+14,4.751972858e+12,6.145674052e-2
764.66000000,4.857600410e+14,4.614487045e+12,5.968724217e-2
764.69000000,4.856643273e+14,4.641000928e+12,6.004202327e-2
764.72000000,4.855130764e+14,4.839638395e+12,6.263136120e-2
764.75000000,4.852671791e+14,5.204933362e+12,6.739289660e-2
764.78000000,4.849142327e+14,5.713035788e+12,7.402559072e-2
764.81000000,4.844980268e+14,6.301255902e+12,8.171748141e-2
764.84000000,4.840989418e+14,6.868900638e+12,8.915238568e-2
764.87000000,4.837822298e+14,7.318804819e+12,9.505393971e-2
764.90000000,4.835665187e+14,7.603724983e+12,9.879843051e-2
764.93000000,4.834310063e+14,7.725875840e+12,1.004137280e-1
